% Encoder logfile
% 1 	Time (sec)
% 2,3 	enc left, right
% 4,5 	encoder change left, right
1712225849.3422 0 0 0 0
1712225849.3492 0 0 0 0
1712225849.3572 0 0 0 0
1712225849.3652 0 0 0 0
1712225849.3731 2 2 2 2
1712225849.3819 4 5 2 3
1712225849.3899 6 8 2 3
1712225849.3972 7 8 1 0
1712225849.4060 8 8 1 0
1712225849.4141 10 10 2 2
1712225849.4220 13 12 3 2
1712225849.4298 16 14 3 2
1712225849.4378 19 15 3 1
1712225849.4459 23 17 4 2
1712225849.4537 27 19 4 2
1712225849.4617 32 21 5 2
1712225849.4698 38 22 6 1
1712225849.4775 44 25 6 3
1712225849.4857 51 28 7 3
1712225849.4937 58 30 7 2
1712225849.5015 65 33 7 3
1712225849.5094 72 36 7 3
1712225849.5174 80 39 8 3
1712225849.5262 88 42 8 3
1712225849.5334 96 45 8 3
1712225849.5413 105 48 9 3
1712225849.5502 113 52 8 4
1712225849.5582 122 55 9 3
1712225849.5662 131 58 9 3
1712225849.5739 140 61 9 3
1712225849.5821 148 66 8 5
1712225849.5900 156 71 8 5
1712225849.5979 166 75 10 4
1712225849.6060 174 78 8 3
1712225849.6140 182 82 8 4
1712225849.6219 190 87 8 5
1712225849.6299 197 92 7 5
1712225849.6379 205 96 8 4
1712225849.6456 213 101 8 5
1712225849.6537 221 107 8 6
1712225849.6616 227 112 6 5
1712225849.6696 234 116 7 4
1712225849.6776 241 121 7 5
1712225849.6855 249 127 8 6
1712225849.6943 256 132 7 5
1712225849.7013 262 136 6 4
1712225849.7093 268 141 6 5
1712225849.7173 275 147 7 6
1712225849.7253 280 153 5 6
1712225849.7333 285 159 5 6
1712225849.7420 291 164 6 5
1712225849.7503 296 168 5 4
1712225849.7574 301 173 5 5
1712225849.7662 305 178 4 5
1712225849.7742 310 183 5 5
1712225849.7822 315 188 5 5
1712225849.7898 318 194 3 6
1712225849.7980 321 199 3 5
1712225849.8063 325 205 4 6
1712225849.8140 329 212 4 7
1712225849.8220 332 218 3 6
1712225849.8300 335 224 3 6
1712225849.8379 337 231 2 7
1712225849.8461 340 239 3 8
1712225849.8542 343 247 3 8
1712225849.8619 345 254 2 7
1712225849.8700 348 263 3 9
1712225849.8780 351 271 3 8
1712225849.8856 353 278 2 7
1712225849.8938 356 286 3 8
1712225849.9019 359 295 3 9
1712225849.9096 361 303 2 8
1712225849.9176 364 311 3 8
1712225849.9256 367 320 3 9
1712225849.9333 370 328 3 8
1712225849.9416 373 336 3 8
1712225849.9497 376 343 3 7
1712225849.9573 380 352 4 9
1712225849.9654 384 360 4 8
1712225849.9734 387 366 3 6
1712225849.9815 391 373 4 7
1712225849.9895 396 379 5 6
1712225849.9977 400 386 4 7
1712225850.0054 404 393 4 7
1712225850.0134 408 401 4 8
1712225850.0214 413 407 5 6
1712225850.0294 418 413 5 6
1712225850.0374 422 419 4 6
1712225850.0455 427 424 5 5
1712225850.0536 432 431 5 7
1712225850.0618 437 437 5 6
1712225850.0699 441 444 4 7
1712225850.0778 446 449 5 5
1712225850.0858 450 455 4 6
1712225850.0939 454 460 4 5
1712225850.1018 459 466 5 6
1712225850.1097 463 472 4 6
1712225850.1180 468 476 5 4
1712225850.1257 473 481 5 5
1712225850.1337 478 486 5 5
1712225850.1417 483 491 5 5
1712225850.1495 489 496 6 5
1712225850.1575 495 500 6 4
1712225850.1658 501 504 6 4
1712225850.1735 507 508 6 4
1712225850.1815 513 512 6 4
1712225850.1895 520 516 7 4
1712225850.1973 526 520 6 4
1712225850.2055 533 523 7 3
1712225850.2135 539 527 6 4
1712225850.2223 546 532 7 5
1712225850.2302 553 536 7 4
1712225850.2382 560 539 7 3
1712225850.2459 567 543 7 4
1712225850.2543 573 548 6 5
1712225850.2622 580 553 7 5
1712225850.2699 587 557 7 4
1712225850.2779 593 561 6 4
1712225850.2858 599 565 6 4
1712225850.2936 605 571 6 6
1712225850.3019 611 577 6 6
1712225850.3100 617 581 6 4
1712225850.3177 623 586 6 5
1712225850.3256 628 591 5 5
1712225850.3337 634 597 6 6
1712225850.3417 640 602 6 5
1712225850.3499 645 607 5 5
1712225850.3579 650 613 5 6
1712225850.3656 655 619 5 6
1712225850.3735 660 625 5 6
1712225850.3817 666 630 6 5
1712225850.3895 671 635 5 5
1712225850.3977 676 641 5 6
1712225850.4057 681 647 5 6
1712225850.4133 687 652 6 5
1712225850.4214 692 657 5 5
1712225850.4294 696 663 4 6
1712225850.4373 701 669 5 6
1712225850.4453 706 674 5 5
1712225850.4534 711 680 5 6
1712225850.4622 715 686 4 6
1712225850.4703 719 692 4 6
1712225850.4775 724 698 5 6
1712225850.4862 728 703 4 5
1712225850.4942 732 709 4 6
1712225850.5013 736 716 4 7
1712225850.5101 740 722 4 6
1712225850.5181 744 728 4 6
1712225850.5263 748 735 4 7
1712225850.5340 752 742 4 7
1712225850.5420 756 748 4 6
1712225850.5501 760 755 4 7
1712225850.5578 763 762 3 7
1712225850.5661 767 768 4 6
1712225850.5741 771 775 4 7
1712225850.5818 775 782 4 7
1712225850.5898 778 790 3 8
1712225850.5981 782 796 4 6
1712225850.6058 788 801 6 5
1712225850.6142 792 808 4 7
1712225850.6221 796 816 4 8
1712225850.6298 800 822 4 6
1712225850.6378 805 827 5 5
1712225850.6458 810 833 5 6
1712225850.6536 814 840 4 7
1712225850.6618 818 846 4 6
1712225850.6699 823 851 5 5
1712225850.6776 829 857 6 6
1712225850.6856 834 864 5 7
1712225850.6935 839 869 5 5
1712225850.7017 844 874 5 5
1712225850.7096 849 880 5 6
1712225850.7176 854 886 5 6
1712225850.7253 860 891 6 5
1712225850.7333 865 896 5 5
1712225850.7413 870 901 5 5
1712225850.7493 876 906 6 5
1712225850.7573 880 911 4 5
1712225850.7653 885 916 5 5
1712225850.7740 890 922 5 6
1712225850.7820 896 927 6 5
1712225850.7900 902 933 6 6
1712225850.7981 908 937 6 4
1712225850.8062 913 942 5 5
1712225850.8141 919 947 6 5
1712225850.8218 925 952 6 5
1712225850.8298 932 957 7 5
1712225850.8382 937 961 5 4
1712225850.8459 943 965 6 4
1712225850.8542 950 970 7 5
1712225850.8622 956 973 6 3
1712225850.8699 962 977 6 4
1712225850.8779 969 981 7 4
1712225850.8861 975 985 6 4
1712225850.8938 982 988 7 3
1712225850.9020 989 992 7 4
1712225850.9099 996 995 7 3
1712225850.9176 1003 999 7 4
1712225850.9258 1010 1002 7 3
1712225850.9338 1017 1005 7 3
1712225850.9415 1024 1009 7 4
1712225850.9498 1031 1012 7 3
1712225850.9577 1038 1016 7 4
1712225850.9654 1045 1020 7 4
1712225850.9736 1052 1023 7 3
1712225850.9816 1058 1026 6 3
1712225850.9893 1066 1030 8 4
1712225850.9975 1073 1034 7 4
1712225851.0055 1080 1037 7 3
1712225851.0143 1087 1041 7 4
1712225851.0215 1092 1045 5 4
1712225851.0295 1099 1049 7 4
1712225851.0383 1106 1052 7 3
1712225851.0463 1113 1056 7 4
1712225851.0534 1120 1060 7 4
1712225851.0613 1127 1064 7 4
1712225851.0693 1134 1068 7 4
1712225851.0773 1141 1071 7 3
1712225851.0860 1148 1075 7 4
1712225851.0941 1155 1080 7 5
1712225851.1022 1163 1084 8 4
1712225851.1102 1170 1088 7 4
1712225851.1183 1177 1091 7 3
1712225851.1263 1184 1095 7 4
1712225851.1340 1191 1100 7 5
1712225851.1420 1198 1104 7 4
1712225851.1501 1204 1107 6 3
1712225851.1580 1211 1111 7 4
1712225851.1660 1217 1116 6 5
1712225851.1741 1223 1120 6 4
1712225851.1818 1230 1123 7 3
1712225851.1898 1236 1126 6 3
1712225851.1981 1243 1131 7 5
1712225851.2059 1250 1135 7 4
1712225851.2138 1257 1137 7 2
1712225851.2219 1264 1141 7 4
1712225851.2296 1271 1146 7 5
1712225851.2375 1277 1150 6 4
1712225851.2457 1284 1154 7 4
1712225851.2536 1291 1157 7 3
1712225851.2617 1298 1162 7 5
1712225851.2696 1304 1166 6 4
1712225851.2773 1311 1170 7 4
1712225851.2855 1318 1174 7 4
1712225851.2935 1325 1177 7 3
1712225851.3014 1332 1181 7 4
1712225851.3094 1339 1186 7 5
1712225851.3174 1345 1189 6 3
1712225851.3262 1352 1193 7 4
1712225851.3334 1359 1197 7 4
1712225851.3416 1366 1202 7 5
1712225851.3495 1372 1205 6 3
1712225851.3575 1378 1209 6 4
1712225851.3655 1386 1213 8 4
1712225851.3742 1392 1217 6 4
1712225851.3813 1398 1221 6 4
1712225851.3894 1405 1224 7 3
1712225851.3984 1411 1228 6 4
1712225851.4053 1418 1233 7 5
1712225851.4133 1424 1237 6 4
1712225851.4223 1430 1240 6 3
1712225851.4303 1437 1244 7 4
1712225851.4382 1444 1248 7 4
1712225851.4459 1451 1252 7 4
1712225851.4542 1457 1256 6 4
1712225851.4622 1464 1259 7 3
1712225851.4702 1471 1264 7 5
1712225851.4783 1477 1268 6 4
1712225851.4863 1484 1271 7 3
1712225851.4939 1491 1275 7 4
1712225851.5021 1497 1279 6 4
1712225851.5101 1504 1283 7 4
1712225851.5180 1511 1287 7 4
1712225851.5260 1518 1291 7 4
1712225851.5341 1525 1295 7 4
1712225851.5418 1531 1299 6 4
1712225851.5500 1539 1303 8 4
1712225851.5582 1546 1307 7 4
1712225851.5659 1552 1311 6 4
1712225851.5739 1559 1314 7 3
1712225851.5819 1566 1318 7 4
1712225851.5896 1572 1323 6 5
1712225851.5977 1579 1327 7 4
1712225851.6060 1586 1330 7 3
1712225851.6137 1592 1334 6 4
1712225851.6217 1599 1339 7 5
1712225851.6297 1605 1343 6 4
1712225851.6374 1611 1346 6 3
1712225851.6455 1617 1350 6 4
1712225851.6537 1624 1355 7 5
1712225851.6615 1631 1360 7 5
1712225851.6695 1637 1363 6 3
1712225851.6775 1643 1367 6 4
1712225851.6863 1649 1372 6 5
1712225851.6934 1657 1376 8 4
1712225851.7014 1664 1380 7 4
1712225851.7102 1669 1384 5 4
1712225851.7183 1675 1388 6 4
1712225851.7253 1681 1393 6 5
1712225851.7341 1688 1398 7 5
1712225851.7422 1695 1402 7 4
1712225851.7493 1701 1406 6 4
1712225851.7581 1706 1410 5 4
1712225851.7661 1712 1415 6 5
1712225851.7742 1719 1420 7 5
1712225851.7821 1725 1424 6 4
1712225851.7901 1731 1428 6 4
1712225851.7983 1736 1432 5 4
1712225851.8061 1743 1437 7 5
1712225851.8141 1749 1442 6 5
1712225851.8221 1755 1447 6 5
1712225851.8300 1762 1450 7 3
1712225851.8382 1768 1454 6 4
1712225851.8462 1773 1459 5 5
1712225851.8541 1779 1464 6 5
1712225851.8621 1786 1467 7 3
1712225851.8701 1793 1471 7 4
1712225851.8780 1799 1476 6 5
1712225851.8860 1804 1480 5 4
1712225851.8941 1810 1484 6 4
1712225851.9020 1816 1488 6 4
1712225851.9099 1823 1492 7 4
1712225851.9182 1829 1496 6 4
1712225851.9259 1834 1501 5 5
1712225851.9340 1840 1505 6 4
1712225851.9419 1847 1510 7 5
1712225851.9498 1853 1514 6 4
1712225851.9578 1859 1519 6 5
1712225851.9660 1865 1524 6 5
1712225851.9738 1871 1528 6 4
1712225851.9819 1877 1533 6 5
1712225851.9898 1883 1538 6 5
1712225851.9977 1889 1542 6 4
1712225852.0059 1895 1547 6 5
1712225852.0139 1901 1552 6 5
1712225852.0216 1907 1556 6 4
1712225852.0297 1913 1561 6 5
1712225852.0376 1919 1566 6 5
1712225852.0453 1924 1570 5 4
1712225852.0537 1930 1575 6 5
1712225852.0617 1936 1580 6 5
1712225852.0695 1942 1584 6 4
1712225852.0776 1948 1590 6 6
1712225852.0857 1953 1594 5 4
1712225852.0934 1959 1598 6 4
1712225852.1017 1966 1604 7 6
1712225852.1097 1972 1608 6 4
1712225852.1174 1977 1613 5 5
1712225852.1254 1982 1618 5 5
1712225852.1334 1989 1623 7 5
1712225852.1413 1995 1627 6 4
1712225852.1494 2001 1632 6 5
1712225852.1574 2007 1637 6 5
1712225852.1662 2013 1641 6 4
1712225852.1734 2019 1645 6 4
1712225852.1814 2024 1650 5 5
1712225852.1895 2030 1654 6 4
1712225852.1977 2037 1659 7 5
1712225852.2056 2044 1663 7 4
1712225852.2134 2050 1668 6 5
1712225852.2214 2056 1672 6 4
1712225852.2293 2062 1677 6 5
1712225852.2383 2068 1682 6 5
1712225852.2463 2076 1686 8 4
1712225852.2534 2084 1690 8 4
1712225852.2621 2090 1694 6 4
1712225852.2701 2094 1699 4 5
1712225852.2783 2100 1703 6 4
1712225852.2861 2108 1707 8 4
1712225852.2941 2115 1712 7 5
1712225852.3023 2120 1716 5 4
1712225852.3100 2126 1720 6 4
1712225852.3181 2133 1724 7 4
1712225852.3263 2139 1728 6 4
1712225852.3340 2145 1732 6 4
1712225852.3422 2151 1736 6 4
1712225852.3493 2158 1741 7 5
1712225852.3581 2164 1744 6 3
1712225852.3663 2170 1748 6 4
1712225852.3742 2178 1752 8 4
1712225852.3819 2184 1756 6 4
1712225852.3899 2190 1759 6 3
1712225852.3981 2197 1763 7 4
1712225852.4058 2204 1768 7 5
1712225852.4140 2210 1772 6 4
1712225852.4220 2217 1776 7 4
1712225852.4297 2224 1781 7 5
1712225852.4378 2230 1786 6 5
1712225852.4458 2238 1789 8 3
1712225852.4537 2245 1793 7 4
1712225852.4620 2251 1797 6 4
1712225852.4700 2258 1801 7 4
1712225852.4777 2266 1804 8 3
1712225852.4857 2272 1808 6 4
1712225852.4938 2278 1812 6 4
1712225852.5019 2286 1815 8 3
1712225852.5100 2293 1819 7 4
1712225852.5180 2299 1823 6 4
1712225852.5257 2306 1826 7 3
1712225852.5337 2313 1830 7 4
1712225852.5417 2320 1833 7 3
1712225852.5496 2327 1837 7 4
1712225852.5577 2334 1840 7 3
1712225852.5657 2341 1844 7 4
1712225852.5734 2347 1847 6 3
1712225852.5815 2354 1851 7 4
1712225852.5895 2361 1854 7 3
1712225852.5975 2367 1858 6 4
1712225852.6055 2374 1862 7 4
1712225852.6135 2381 1865 7 3
1712225852.6223 2387 1869 6 4
1712225852.6302 2394 1873 7 4
1712225852.6373 2401 1876 7 3
1712225852.6461 2408 1880 7 4
1712225852.6533 2415 1884 7 4
1712225852.6623 2422 1887 7 3
1712225852.6700 2429 1891 7 4
1712225852.6780 2436 1895 7 4
1712225852.6862 2443 1899 7 4
1712225852.6939 2449 1903 6 4
1712225852.7021 2456 1907 7 4
1712225852.7101 2463 1911 7 4
1712225852.7179 2470 1915 7 4
1712225852.7261 2477 1919 7 4
1712225852.7333 2483 1923 6 4
1712225852.7423 2490 1927 7 4
1712225852.7494 2497 1931 7 4
1712225852.7574 2503 1936 6 5
1712225852.7661 2509 1939 6 3
1712225852.7743 2516 1943 7 4
1712225852.7822 2522 1948 6 5
1712225852.7899 2528 1953 6 5
1712225852.7981 2535 1957 7 4
1712225852.8061 2541 1960 6 3
1712225852.8138 2548 1964 7 4
1712225852.8221 2554 1969 6 5
1712225852.8301 2560 1974 6 5
1712225852.8379 2567 1978 7 4
1712225852.8460 2574 1981 7 3
1712225852.8542 2580 1986 6 5
1712225852.8620 2586 1991 6 5
1712225852.8700 2592 1996 6 5
1712225852.8780 2598 2000 6 4
1712225852.8858 2605 2003 7 3
1712225852.8938 2611 2008 6 5
1712225852.9019 2617 2013 6 5
1712225852.9098 2623 2018 6 5
1712225852.9179 2629 2022 6 4
1712225852.9259 2635 2025 6 3
1712225852.9336 2642 2030 7 5
1712225852.9416 2648 2034 6 4
1712225852.9499 2654 2038 6 4
1712225852.9578 2659 2042 5 4
1712225852.9658 2665 2047 6 5
1712225852.9739 2672 2052 7 5
1712225852.9816 2678 2056 6 4
1712225852.9896 2684 2061 6 5
1712225852.9981 2690 2065 6 4
1712225853.0057 2695 2069 5 4
1712225853.0138 2702 2074 7 5
1712225853.0218 2708 2078 6 4
1712225853.0296 2714 2082 6 4
1712225853.0376 2719 2087 5 5
1712225853.0458 2726 2091 7 4
1712225853.0537 2732 2096 6 5
1712225853.0617 2738 2100 6 4
1712225853.0697 2744 2105 6 5
1712225853.0773 2750 2110 6 5
1712225853.0855 2756 2114 6 4
1712225853.0936 2762 2118 6 4
1712225853.1015 2768 2123 6 5
1712225853.1095 2774 2128 6 5
1712225853.1175 2780 2132 6 4
1712225853.1263 2786 2137 6 5
1712225853.1335 2793 2143 7 6
1712225853.1415 2799 2147 6 4
1712225853.1494 2805 2150 6 3
1712225853.1574 2810 2155 5 5
1712225853.1654 2817 2160 7 5
1712225853.1741 2823 2166 6 6
1712225853.1813 2829 2170 6 4
1712225853.1904 2835 2174 6 4
1712225853.1983 2841 2179 6 5
1712225853.2063 2847 2183 6 4
1712225853.2143 2854 2187 7 4
1712225853.2223 2859 2192 5 5
1712225853.2303 2865 2196 6 4
1712225853.2383 2872 2201 7 5
1712225853.2460 2878 2205 6 4
1712225853.2541 2884 2210 6 5
1712225853.2621 2889 2214 5 4
1712225853.2700 2895 2218 6 4
1712225853.2780 2902 2223 7 5
1712225853.2860 2907 2228 5 5
1712225853.2937 2913 2232 6 4
1712225853.3018 2920 2237 7 5
1712225853.3099 2926 2242 6 5
1712225853.3178 2931 2246 5 4
1712225853.3259 2936 2251 5 5
1712225853.3338 2943 2256 7 5
1712225853.3417 2949 2260 6 4
1712225853.3499 2954 2265 5 5
1712225853.3581 2960 2270 6 5
1712225853.3657 2965 2274 5 4
1712225853.3738 2971 2279 6 5
1712225853.3818 2978 2284 7 5
1712225853.3895 2984 2289 6 5
1712225853.3977 2989 2293 5 4
1712225853.4059 2995 2298 6 5
1712225853.4136 3002 2303 7 5
1712225853.4216 3008 2307 6 4
1712225853.4295 3013 2312 5 5
1712225853.4382 3018 2317 5 5
1712225853.4455 3025 2322 7 5
1712225853.4537 3032 2326 7 4
1712225853.4613 3039 2331 7 5
1712225853.4693 3044 2336 5 5
1712225853.4774 3049 2340 5 4
1712225853.4861 3056 2344 7 4
1712225853.4943 3063 2349 7 5
1712225853.5015 3069 2353 6 4
1712225853.5102 3075 2358 6 5
1712225853.5182 3081 2362 6 4
1712225853.5262 3087 2367 6 5
1712225853.5339 3094 2372 7 5
1712225853.5421 3100 2376 6 4
1712225853.5503 3106 2380 6 4
1712225853.5580 3112 2384 6 4
1712225853.5660 3119 2389 7 5
1712225853.5740 3125 2395 6 6
1712225853.5818 3131 2399 6 4
1712225853.5898 3137 2403 6 4
1712225853.5980 3143 2406 6 3
1712225853.6057 3149 2410 6 4
1712225853.6137 3156 2415 7 5
1712225853.6217 3163 2419 7 4
1712225853.6296 3169 2423 6 4
1712225853.6376 3175 2427 6 4
1712225853.6456 3182 2431 7 4
1712225853.6535 3189 2436 7 5
1712225853.6615 3195 2440 6 4
1712225853.6695 3201 2443 6 3
1712225853.6774 3208 2447 7 4
1712225853.6854 3214 2452 6 5
1712225853.6934 3220 2456 6 4
1712225853.7024 3227 2459 7 3
1712225853.7093 3234 2464 7 5
1712225853.7175 3240 2469 6 5
1712225853.7263 3246 2472 6 3
1712225853.7343 3253 2476 7 4
1712225853.7422 3261 2481 8 5
1712225853.7501 3267 2485 6 4
1712225853.7582 3273 2488 6 3
1712225853.7654 3280 2491 7 3
1712225853.7742 3287 2496 7 5
1712225853.7822 3293 2501 6 5
1712225853.7903 3300 2504 7 3
1712225853.7981 3306 2508 6 4
1712225853.8063 3313 2512 7 4
1712225853.8143 3320 2516 7 4
1712225853.8221 3326 2520 6 4
1712225853.8301 3333 2524 7 4
1712225853.8383 3340 2527 7 3
1712225853.8460 3347 2531 7 4
1712225853.8536 3353 2536 6 5
1712225853.8615 3360 2539 7 3
1712225853.8703 3367 2542 7 3
1712225853.8782 3374 2546 7 4
1712225853.8862 3381 2550 7 4
1712225853.8940 3388 2553 7 3
1712225853.9015 3394 2557 6 4
1712225853.9095 3401 2560 7 3
1712225853.9182 3408 2564 7 4
1712225853.9263 3415 2568 7 4
1712225853.9333 3422 2572 7 4
1712225853.9423 3428 2576 6 4
1712225853.9494 3435 2579 7 3
1712225853.9574 3441 2583 6 4
1712225853.9662 3448 2587 7 4
1712225853.9742 3455 2592 7 5
1712225853.9822 3461 2595 6 3
1712225853.9902 3468 2598 7 3
1712225853.9974 3475 2601 7 3
1712225854.0054 3481 2606 6 5
1712225854.0142 3488 2609 7 3
1712225854.0222 3495 2612 7 3
1712225854.0302 3502 2616 7 4
1712225854.0381 3509 2620 7 4
1712225854.0461 3516 2624 7 4
1712225854.0543 3523 2627 7 3
1712225854.0620 3530 2630 7 3
1712225854.0700 3537 2634 7 4
1712225854.0782 3545 2637 8 3
1712225854.0859 3552 2640 7 3
1712225854.0940 3559 2643 7 3
1712225854.1022 3567 2646 8 3
1712225854.1098 3575 2649 8 3
1712225854.1179 3582 2652 7 3
1712225854.1260 3590 2655 8 3
1712225854.1337 3597 2658 7 3
1712225854.1417 3605 2661 8 3
1712225854.1500 3612 2664 7 3
1712225854.1576 3620 2667 8 3
1712225854.1658 3628 2671 8 4
1712225854.1738 3635 2674 7 3
1712225854.1815 3643 2677 8 3
1712225854.1895 3650 2680 7 3
1712225854.1980 3657 2684 7 4
1712225854.2057 3665 2687 8 3
1712225854.2139 3672 2690 7 3
1712225854.2219 3678 2694 6 4
1712225854.2296 3687 2697 9 3
1712225854.2375 3693 2702 6 5
1712225854.2455 3699 2706 6 4
1712225854.2534 3706 2709 7 3
1712225854.2616 3713 2712 7 3
1712225854.2697 3719 2716 6 4
1712225854.2774 3726 2720 7 4
1712225854.2855 3734 2723 8 3
1712225854.2938 3741 2727 7 4
1712225854.3019 3748 2731 7 4
1712225854.3100 3756 2734 8 3
1712225854.3181 3763 2738 7 4
1712225854.3258 3769 2742 6 4
1712225854.3338 3776 2746 7 4
1712225854.3420 3783 2749 7 3
1712225854.3501 3790 2752 7 3
1712225854.3581 3797 2757 7 5
1712225854.3661 3804 2761 7 4
1712225854.3738 3811 2765 7 4
1712225854.3818 3818 2769 7 4
1712225854.3898 3824 2772 6 3
1712225854.3978 3831 2776 7 4
1712225854.4059 3837 2781 6 5
1712225854.4139 3844 2785 7 4
1712225854.4216 3850 2789 6 4
1712225854.4296 3856 2793 6 4
1712225854.4379 3863 2797 7 4
1712225854.4456 3869 2801 6 4
1712225854.4538 3876 2805 7 4
1712225854.4618 3882 2809 6 4
1712225854.4695 3888 2812 6 3
1712225854.4775 3895 2816 7 4
1712225854.4857 3901 2820 6 4
1712225854.4935 3907 2825 6 5
1712225854.5017 3913 2829 6 4
1712225854.5097 3919 2833 6 4
1712225854.5174 3925 2838 6 5
1712225854.5256 3931 2842 6 4
1712225854.5336 3937 2846 6 4
1712225854.5423 3943 2850 6 4
1712225854.5495 3949 2855 6 5
1712225854.5575 3956 2859 7 4
1712225854.5663 3961 2864 5 5
1712225854.5734 3967 2868 6 4
1712225854.5816 3973 2873 6 5
1712225854.5893 3979 2878 6 5
1712225854.5975 3985 2882 6 4
1712225854.6055 3991 2887 6 5
1712225854.6142 3997 2892 6 5
1712225854.6214 4003 2896 6 4
1712225854.6294 4008 2901 5 5
1712225854.6382 4014 2906 6 5
1712225854.6462 4020 2911 6 5
1712225854.6533 4026 2917 6 6
1712225854.6623 4031 2922 5 5
1712225854.6703 4036 2926 5 4
1712225854.6783 4043 2931 7 5
1712225854.6860 4049 2937 6 6
1712225854.6941 4054 2942 5 5
1712225854.7023 4059 2946 5 4
1712225854.7102 4065 2951 6 5
1712225854.7182 4071 2956 6 5
1712225854.7262 4077 2961 6 5
1712225854.7339 4082 2966 5 5
1712225854.7419 4088 2971 6 5
1712225854.7500 4094 2976 6 5
1712225854.7580 4099 2981 5 5
1712225854.7660 4105 2987 6 6
